U-238(n,tot) ENDFB-8.0
Energy(eV) XS(b)
1.00000E-05 170.085
1.03125E-05 167.520
1.06250E-05 165.069
1.09375E-05 162.724
1.12500E-05 160.479
1.15625E-05 158.325
1.18750E-05 156.257
1.21875E-05 154.270
1.25000E-05 152.358
1.28125E-05 150.516
1.31250E-05 148.741
1.34375E-05 147.029
1.37500E-05 145.376
1.43750E-05 142.234
1.50000E-05 139.291
1.56250E-05 136.527
1.62500E-05 133.926
1.68750E-05 131.471
1.75000E-05 129.150
1.81250E-05 126.951
1.87500E-05 124.863
1.93750E-05 122.878
2.00000E-05 120.987
2.09375E-05 118.313
2.18750E-05 115.814
2.28125E-05 113.471
2.37500E-05 111.270
2.46875E-05 109.197
2.56250E-05 107.239
2.65625E-05 105.387
2.75000E-05 103.631
2.84375E-05 101.964
2.93750E-05 100.378
3.03125E-05 98.8671
3.12500E-05 97.4253
3.21875E-05 96.0476
3.31250E-05 94.7295
3.40625E-05 93.4668
3.50000E-05 92.2559
3.59375E-05 91.0931
3.68750E-05 89.9756
3.78125E-05 88.9004
3.87500E-05 87.8649
3.96875E-05 86.8669
4.06250E-05 85.9040
4.25000E-05 84.0761
4.43750E-05 82.3669
4.62500E-05 80.7643
4.81250E-05 79.2576
5.00000E-05 77.8379
5.15625E-05 76.7153
5.31250E-05 75.6435
5.46875E-05 74.6187
5.62500E-05 73.6376
5.78125E-05 72.6973
5.93750E-05 71.7950
6.09375E-05 70.9282
6.25000E-05 70.0948
6.40625E-05 69.2927
6.56250E-05 68.5199
6.71875E-05 67.7748
6.87500E-05 67.0557
7.18750E-05 65.6899
7.50000E-05 64.4122
7.81250E-05 63.2136
8.12500E-05 62.0863
8.43750E-05 61.0237
8.75000E-05 60.0198
9.06250E-05 59.0695
9.37500E-05 58.1682
9.68750E-05 57.3121
0.000100000 56.4973
0.000103125 55.7209
0.000106250 54.9798
0.000109375 54.2716
0.000112500 53.5938
0.000115625 52.9445
0.000118750 52.3217
0.000121875 51.7237
0.000125000 51.1488
0.000128125 50.5958
0.000131250 50.0632
0.000134375 49.5498
0.000137500 49.0545
0.000143750 48.1143
0.000150000 47.2353
0.000156250 46.4112
0.000162500 45.6365
0.000168750 44.9067
0.000175000 44.2175
0.000181250 43.5655
0.000187500 42.9474
0.000193750 42.3604
0.000200000 41.8021
0.000209375 41.0136
0.000218750 40.2780
0.000228125 39.5897
0.000237500 38.9440
0.000246875 38.3366
0.000256250 37.7641
0.000265625 37.2232
0.000275000 36.7111
0.000284375 36.2254
0.000293750 35.7640
0.000303125 35.3248
0.000312500 34.9063
0.000321875 34.5068
0.000331250 34.1250
0.000340625 33.7595
0.000350000 33.4094
0.000359375 33.0735
0.000368750 32.7509
0.000378125 32.4408
0.000387500 32.1425
0.000396875 31.8550
0.000406250 31.5780
0.000425000 31.0525
0.000443750 30.5617
0.000462500 30.1021
0.000481250 29.6704
0.000500000 29.2640
0.000515625 28.9429
0.000531250 28.6365
0.000546875 28.3438
0.000562500 28.0636
0.000578125 27.7953
0.000593750 27.5379
0.000609375 27.2908
0.000625000 27.0533
0.000640625 26.8247
0.000656250 26.6047
0.000671875 26.3925
0.000687500 26.1878
0.000718750 25.7992
0.000750000 25.4358
0.000781250 25.0949
0.000812500 24.7744
0.000843750 24.4724
0.000875000 24.1871
0.000906250 23.9170
0.000937500 23.6609
0.000968750 23.4175
0.00100000 23.1860
0.00103125 22.9652
0.00106250 22.7545
0.00109375 22.5531
0.00112500 22.3604
0.00115625 22.1756
0.00118750 21.9984
0.00121875 21.8282
0.00125000 21.6645
0.00128125 21.5070
0.00131250 21.3553
0.00134375 21.2090
0.00137500 21.0678
0.00143750 20.7996
0.00150000 20.5487
0.00156250 20.3133
0.00162500 20.0919
0.00168750 19.8831
0.00175000 19.6858
0.00181250 19.4989
0.00187500 19.3217
0.00193750 19.1532
0.00200000 18.9928
0.00209375 18.7661
0.00218750 18.5543
0.00228125 18.3560
0.00237500 18.1697
0.00246875 17.9942
0.00256250 17.8286
0.00265625 17.6720
0.00275000 17.5236
0.00284375 17.3827
0.00293750 17.2487
0.00303125 17.1210
0.00312500 16.9993
0.00321875 16.8829
0.00331250 16.7716
0.00340625 16.6650
0.00350000 16.5627
0.00359375 16.4645
0.00368750 16.3702
0.00378125 16.2794
0.00387500 16.1920
0.00396875 16.1077
0.00406250 16.0264
0.00425000 15.8720
0.00443750 15.7277
0.00462500 15.5923
0.00481250 15.4650
0.00500000 15.3449
0.00515625 15.2500
0.00531250 15.1594
0.00546875 15.0727
0.00562500 14.9897
0.00578125 14.9101
0.00593750 14.8337
0.00609375 14.7603
0.00625000 14.6897
0.00640625 14.6217
0.00656250 14.5562
0.00671875 14.4930
0.00687500 14.4320
0.00718750 14.3160
0.00750000 14.2075
0.00781250 14.1056
0.00812500 14.0096
0.00843750 13.9191
0.00875000 13.8335
0.00906250 13.7524
0.00937500 13.6755
0.00968750 13.6023
0.0100000 13.5326
0.0103125 13.4661
0.0106250 13.4026
0.0109375 13.3419
0.0112500 13.2837
0.0115625 13.2280
0.0118750 13.1744
0.0121875 13.1230
0.0125000 13.0735
0.0128125 13.0258
0.0131250 12.9799
0.0134375 12.9356
0.0137500 12.8928
0.0143750 12.8115
0.0150000 12.7354
0.0156250 12.6639
0.0162500 12.5966
0.0168750 12.5331
0.0175000 12.4730
0.0181250 12.4161
0.0187500 12.3620
0.0193750 12.3106
0.0200000 12.2617
0.0206625 12.2123
0.0213250 12.1652
0.0219875 12.1202
0.0226500 12.0773
0.0233125 12.0362
0.0239750 11.9968
0.0246375 11.9591
0.0253000 11.9228
0.0264578 11.8628
0.0276156 11.8066
0.0287734 11.7538
0.0299313 11.7041
0.0310891 11.6573
0.0322469 11.6130
0.0334047 11.5711
0.0345625 11.5313
0.0355274 11.4996
0.0364922 11.4691
0.0374570 11.4399
0.0384219 11.4118
0.0393867 11.3847
0.0403516 11.3586
0.0413164 11.3334
0.0422813 11.3090
0.0442109 11.2628
0.0461406 11.2195
0.0480703 11.1788
0.0500000 11.1405
0.0515625 11.1111
0.0531250 11.0830
0.0546875 11.0561
0.0562500 11.0304
0.0578125 11.0057
0.0593750 10.9820
0.0609375 10.9591
0.0625000 10.9372
0.0640625 10.9161
0.0656250 10.8957
0.0671875 10.8760
0.0687500 10.8571
0.0718750 10.8210
0.0750000 10.7871
0.0781250 10.7553
0.0812500 10.7254
0.0843750 10.6971
0.0875000 10.6703
0.0906250 10.6449
0.0937500 10.6208
0.0968750 10.5978
0.100000 10.5760
0.103125 10.5551
0.106250 10.5351
0.109375 10.5160
0.112500 10.4977
0.115625 10.4801
0.118750 10.4633
0.121875 10.4470
0.125000 10.4314
0.128125 10.4163
0.131250 10.4018
0.134375 10.3878
0.137500 10.3743
0.143750 10.3485
0.150000 10.3243
0.156250 10.3015
0.162500 10.2801
0.168750 10.2598
0.175000 10.2406
0.181250 10.2223
0.187500 10.2050
0.193750 10.1884
0.200000 10.1727
0.209375 10.1504
0.218750 10.1294
0.228125 10.1097
0.237500 10.0911
0.246875 10.0735
0.256250 10.0569
0.265625 10.0411
0.275000 10.0261
0.284375 10.0118
0.293750 9.99808
0.303125 9.98502
0.312500 9.97250
0.321875 9.96050
0.331250 9.94898
0.340625 9.93789
0.350000 9.92722
0.359375 9.91694
0.368750 9.90701
0.378125 9.89743
0.387500 9.88816
0.396875 9.87919
0.406250 9.87053
0.425000 9.85395
0.443750 9.83829
0.462500 9.82348
0.500000 9.79612
0.531250 9.77526
0.562500 9.75586
0.625000 9.72080
0.687500 9.68974
0.750000 9.66181
0.812500 9.63639
0.875000 9.61305
0.937500 9.59139
1.00000 9.57111
1.06250 9.55203
1.12500 9.53396
1.25000 9.50034
1.37500 9.46939
1.50000 9.44049
1.62500 9.41322
1.75000 9.38726
1.87500 9.36234
2.00000 9.33826
2.13104 9.31380
2.26209 9.29004
2.39313 9.26682
2.52418 9.24409
2.65522 9.22181
2.78626 9.19997
2.91731 9.17857
3.04835 9.15766
3.17004 9.13873
3.29172 9.12034
3.41340 9.10248
3.53509 9.08547
3.65677 9.06944
3.77845 9.05467
3.90014 9.04159
3.96098 9.03589
4.02182 9.03095
4.09202 9.02657
4.16222 9.02439
4.19733 9.02482
4.23243 9.02749
4.24998 9.03037
4.26753 9.03526
4.28508 9.04419
4.29385 9.05164
4.30263 9.06269
4.30731 9.07076
4.31199 9.08088
4.31667 9.09359
4.32135 9.10953
4.32603 9.12941
4.33071 9.15400
4.33539 9.18409
4.34007 9.22042
4.34446 9.26072
4.34885 9.30737
4.35323 9.36047
4.35762 9.41974
4.36201 9.48457
4.36640 9.55384
4.37517 9.69920
4.38219 9.81234
4.38570 9.86428
4.38921 9.91131
4.39272 9.95217
4.39624 9.98563
4.39975 10.0107
4.40326 10.0266
4.40748 10.0330
4.41029 10.0294
4.41311 10.0196
4.41592 10.0038
4.41873 9.98221
4.42185 9.95215
4.42498 9.91632
4.42810 9.87554
4.43122 9.83072
4.43604 9.75568
4.44087 9.67672
4.45052 9.51976
4.45620 9.43463
4.46187 9.35833
4.46471 9.32395
4.46755 9.29222
4.47039 9.26315
4.47323 9.23668
4.47663 9.20826
4.48004 9.18328
4.48344 9.16150
4.48685 9.14264
4.49026 9.12641
4.49366 9.11252
4.50047 9.09059
4.50501 9.07949
4.50955 9.07059
4.51608 9.06077
4.52261 9.05356
4.53567 9.04415
4.54872 9.03865
4.56178 9.03529
4.58789 9.03203
4.61400 9.03131
4.66623 9.03404
4.71845 9.04057
4.77067 9.04994
4.82290 9.06199
4.87512 9.07682
4.92734 9.09511
4.96367 9.11008
5.00000 9.12708
5.05844 9.15908
5.11687 9.19763
5.17531 9.24403
5.20453 9.27062
5.23375 9.29977
5.26296 9.33170
5.29218 9.36669
5.32140 9.40498
5.35062 9.44683
5.37984 9.49266
5.40905 9.54308
5.43827 9.59862
5.46749 9.65974
5.50320 9.74289
5.53891 9.83656
5.57462 9.94229
5.61033 10.0619
5.64604 10.1976
5.68176 10.3518
5.71747 10.5279
5.73532 10.6252
5.75318 10.7293
5.78564 10.9385
5.81811 11.1766
5.83434 11.3080
5.85057 11.4487
5.86680 11.5994
5.88303 11.7610
5.89927 11.9345
5.91550 12.1210
5.93173 12.3217
5.94796 12.5379
5.96420 12.7711
5.98043 13.0230
5.99666 13.2957
6.01289 13.5915
6.03075 13.9467
6.04860 14.3368
6.06646 14.7663
6.08431 15.2403
6.10217 15.7647
6.12003 16.3465
6.13788 16.9941
6.15574 17.7173
6.17359 18.5279
6.19145 19.4399
6.20037 19.9391
6.20930 20.4704
6.21823 21.0363
6.22716 21.6399
6.23609 22.2846
6.24501 22.9739
6.25394 23.7121
6.26287 24.5035
6.27180 25.3535
6.28072 26.2678
6.28965 27.2528
6.29858 28.3159
6.31157 30.0192
6.31806 30.9489
6.32455 31.9363
6.33348 33.3971
6.34241 34.9905
6.35134 36.7330
6.36026 38.6433
6.36919 40.7441
6.37812 43.0612
6.38705 45.6252
6.39597 48.4722
6.40490 51.6463
6.41383 55.1996
6.41829 57.1378
6.42276 59.1958
6.42722 61.3837
6.43168 63.7125
6.43615 66.1959
6.44061 68.8479
6.44508 71.6844
6.44954 74.7229
6.45400 77.9856
6.45847 81.4954
6.46293 85.2792
6.46739 89.3673
6.47105 92.9656
6.47470 96.8142
6.47653 98.8418
6.47835 100.941
6.48018 103.118
6.48200 105.375
6.48383 107.719
6.48566 110.151
6.48748 112.680
6.48931 115.309
6.49114 118.046
6.49296 120.897
6.49479 123.868
6.49661 126.969
6.49803 129.476
6.49945 132.070
6.50087 134.755
6.50229 137.537
6.50372 140.424
6.50514 143.417
6.50656 146.524
6.50798 149.752
6.50894 152.016
6.50990 154.341
6.51087 156.729
6.51183 159.184
6.51280 161.708
6.51376 164.304
6.51472 166.975
6.51569 169.720
6.51690 173.307
6.51812 177.030
6.51924 180.570
6.52035 184.238
6.52147 188.039
6.52258 191.981
6.52370 196.071
6.52482 200.316
6.52593 204.725
6.52705 209.306
6.52801 213.409
6.52898 217.653
6.52994 222.044
6.53090 226.590
6.53187 231.298
6.53283 236.175
6.53380 241.228
6.53476 246.461
6.53588 252.767
6.53699 259.346
6.53811 266.212
6.53922 273.382
6.54034 280.870
6.54146 288.693
6.54257 296.871
6.54369 305.412
6.54480 314.353
6.54592 323.706
6.54703 333.492
6.54815 343.733
6.54927 354.454
6.55038 365.678
6.55150 377.431
6.55261 389.740
6.55373 402.631
6.55485 416.133
6.55596 430.276
6.55708 445.092
6.55819 460.611
6.55931 476.867
6.56043 493.893
6.56154 511.710
6.56266 530.384
6.56377 549.938
6.56489 570.410
6.56601 591.839
6.56712 614.265
6.56824 637.730
6.56935 662.276
6.57047 687.945
6.57159 714.782
6.57270 742.829
6.57382 772.133
6.57493 802.739
6.57605 834.691
6.57717 868.037
6.57828 902.822
6.57940 939.092
6.58051 976.893
6.58163 1016.27
6.58275 1057.27
6.58386 1099.94
6.58498 1144.32
6.58609 1190.46
6.58721 1238.39
6.58833 1288.16
6.58944 1339.81
6.59056 1393.37
6.59167 1448.88
6.59279 1506.38
6.59502 1627.45
6.59725 1756.74
6.59938 1888.10
6.60151 2027.20
6.60364 2174.20
6.60577 2328.96
6.60791 2491.53
6.61004 2661.62
6.61217 2839.16
6.61430 3023.69
6.61653 3224.20
6.61876 3431.50
6.62099 3644.93
6.62322 3863.64
6.62769 4313.92
6.63215 4773.93
6.63662 5234.22
6.64108 5683.94
6.64554 6111.79
6.65001 6505.84
6.65447 6854.53
6.65670 7008.47
6.65893 7147.07
6.66126 7274.04
6.66358 7382.11
6.66591 7470.33
6.66823 7537.90
6.67126 7593.94
6.67428 7613.16
6.67504 7612.16
6.67750 7592.92
6.67995 7549.42
6.68241 7482.13
6.68487 7391.82
6.68740 7275.89
6.68992 7137.91
6.69245 6979.31
6.69497 6801.76
6.69760 6599.05
6.70022 6380.09
6.70285 6147.03
6.70548 5902.39
6.71073 5387.43
6.71598 4854.13
6.72218 4223.71
6.72529 3915.84
6.72839 3616.50
6.73102 3371.35
6.73364 3134.96
6.73627 2908.27
6.73889 2692.07
6.74152 2486.77
6.74414 2292.88
6.74677 2110.46
6.74939 1939.72
6.75202 1780.44
6.75465 1632.57
6.75727 1495.68
6.75990 1369.53
6.76252 1253.56
6.76384 1199.26
6.76515 1147.36
6.76646 1097.73
6.76777 1050.33
6.76909 1005.10
6.77040 961.984
6.77231 902.801
6.77422 847.696
6.77613 796.387
6.77804 748.712
6.77995 704.404
6.78186 663.301
6.78377 625.156
6.78567 589.812
6.78758 557.043
6.78949 526.703
6.79140 498.588
6.79331 472.564
6.79522 448.448
6.79713 426.121
6.79904 405.421
6.80095 386.244
6.80358 362.112
6.80620 340.328
6.80883 320.634
6.81145 302.803
6.81408 286.616
6.81670 271.901
6.81933 258.481
6.82196 246.223
6.82458 234.987
6.82721 224.671
6.82983 215.166
6.83246 206.392
6.83508 198.265
6.83771 190.723
6.84033 183.702
6.84296 177.155
6.84559 171.032
6.84821 165.293
6.85084 159.904
6.85346 154.836
6.85609 150.056
6.85871 145.543
6.86396 137.230
6.86922 129.747
6.87447 122.977
6.87972 116.822
6.88497 111.204
6.88927 106.959
6.89356 103.000
6.89786 99.2979
6.90215 95.8310
6.90645 92.5770
6.91075 89.5192
6.91504 86.6406
6.91934 83.9268
6.92364 81.3640
6.92793 78.9420
6.93223 76.6495
6.93652 74.4770
6.94512 70.4582
6.95371 66.8265
6.95896 64.7752
6.96421 62.8401
6.96946 61.0120
6.97471 59.2827
6.97997 57.6452
6.98522 56.0927
6.99572 53.2195
7.00622 50.6211
7.01672 48.2631
7.02723 46.1155
7.03773 44.1534
7.04823 42.3552
7.05873 40.7031
7.06923 39.1809
7.07974 37.7751
7.09024 36.4737
7.10074 35.2666
7.11124 34.1444
7.12175 33.0993
7.13320 32.0387
7.14466 31.0531
7.15516 30.2094
7.16566 29.4178
7.17617 28.6741
7.18667 27.9741
7.19717 27.3145
7.20767 26.6921
7.21818 26.1041
7.22868 25.5480
7.23918 25.0213
7.24968 24.5220
7.26018 24.0483
7.27069 23.5983
7.29169 22.7632
7.31269 22.0054
7.33370 21.3154
7.35470 20.6850
7.37571 20.1073
7.39671 19.5764
7.41772 19.0873
7.43872 18.6355
7.45973 18.2174
7.48073 17.8295
7.49982 17.5008
7.51892 17.1928
7.53801 16.9040
7.55711 16.6333
7.57620 16.3807
7.59530 16.1469
7.61439 15.9321
7.63349 15.7340
7.65640 15.5091
7.66967 15.3800
7.67388 15.3386
7.68092 15.2692
7.70180 15.0605
7.72269 14.8539
7.74528 14.6428
7.76787 14.4495
7.79047 14.2727
7.81306 14.1087
7.83565 13.9546
7.85824 13.8087
7.88084 13.6703
7.90343 13.5387
7.94861 13.2940
7.99380 13.0712
8.03898 12.8676
8.08417 12.6809
8.12032 12.5422
8.15646 12.4123
8.19261 12.2902
8.22876 12.1754
8.25813 12.0870
8.28750 12.0026
8.34624 11.8450
8.40498 11.7006
8.46372 11.5680
8.52246 11.4457
8.58120 11.3329
8.63994 11.2279
8.69868 11.1301
8.74838 11.0524
8.79809 10.9790
8.84779 10.9095
8.89749 10.8436
8.94720 10.7810
8.99690 10.7214
9.04660 10.6647
9.09631 10.6106
9.14601 10.5590
9.19571 10.5096
9.29512 10.4170
9.39453 10.3317
9.49393 10.2531
9.54815 10.2128
9.60238 10.1741
9.65660 10.1372
9.71082 10.1021
9.76504 10.0687
9.81926 10.0374
9.87348 10.0090
9.90060 9.99610
9.92771 9.98452
9.94578 9.97772
9.96385 9.97190
9.98193 9.96738
10.0000 9.96467
10.0143 9.96434
10.0285 9.96640
10.0357 9.96869
10.0428 9.97212
10.0500 9.97705
10.0571 9.98392
10.0642 9.99339
10.0714 10.0063
10.0749 10.0144
10.0785 10.0239
10.0821 10.0348
10.0856 10.0476
10.0892 10.0623
10.0928 10.0794
10.0963 10.0992
10.0999 10.1219
10.1035 10.1481
10.1070 10.1781
10.1106 10.2125
10.1142 10.2515
10.1171 10.2873
10.1200 10.3268
10.1229 10.3705
10.1258 10.4186
10.1287 10.4713
10.1316 10.5291
10.1345 10.5922
10.1373 10.6605
10.1402 10.7349
10.1431 10.8152
10.1460 10.9018
10.1489 10.9946
10.1518 11.0938
10.1547 11.1995
10.1576 11.3115
10.1605 11.4294
10.1634 11.5538
10.1663 11.6841
10.1692 11.8199
10.1721 11.9608
10.1779 12.2555
10.1837 12.5627
10.1926 13.0455
10.1971 13.2834
10.2016 13.5136
10.2065 13.7531
10.2114 13.9720
10.2163 14.1654
10.2212 14.3282
10.2258 14.4499
10.2304 14.5373
10.2350 14.5883
10.2395 14.6030
10.2441 14.5804
10.2487 14.5209
10.2518 14.4603
10.2549 14.3841
10.2590 14.2608
10.2631 14.1140
10.2688 13.8784
10.2744 13.6118
10.2801 13.3221
10.2857 13.0186
10.2970 12.4000
10.3027 12.0998
10.3083 11.8135
10.3124 11.6165
10.3166 11.4305
10.3207 11.2563
10.3248 11.0945
10.3289 10.9454
10.3309 10.8755
10.3330 10.8090
10.3351 10.7454
10.3371 10.6851
10.3392 10.6279
10.3412 10.5736
10.3433 10.5219
10.3453 10.4732
10.3474 10.4271
10.3494 10.3837
10.3515 10.3427
10.3535 10.3043
10.3556 10.2680
10.3576 10.2341
10.3597 10.2022
10.3618 10.1724
10.3638 10.1444
10.3659 10.1183
10.3679 10.0938
10.3700 10.0710
10.3720 10.0498
10.3741 10.0299
10.3782 9.99396
10.3823 9.96269
10.3864 9.93546
10.3905 9.91179
10.3946 9.89106
10.3987 9.87291
10.4028 9.85696
10.4069 9.84291
10.4136 9.82330
10.4203 9.80692
10.4270 9.79298
10.4336 9.78095
10.4403 9.77035
10.4470 9.76091
10.4603 9.74454
10.4737 9.73055
10.4870 9.71821
10.5004 9.70707
10.5137 9.69684
10.5302 9.68520
10.5466 9.67438
10.5795 9.65454
10.6123 9.63640
10.6452 9.61947
10.7109 9.58802
10.7767 9.55874
10.8424 9.53109
10.9081 9.50485
10.9739 9.48011
11.0067 9.46844
11.0396 9.45747
11.0725 9.44761
11.0889 9.44338
11.1053 9.43998
11.1202 9.43809
11.1277 9.43781
11.1351 9.43818
11.1426 9.43942
11.1500 9.44181
11.1574 9.44575
11.1649 9.45169
11.1686 9.45561
11.1723 9.46026
11.1761 9.46574
11.1798 9.47214
11.1835 9.47959
11.1872 9.48817
11.1910 9.49799
11.1947 9.50918
11.1984 9.52189
11.2021 9.53615
11.2058 9.55212
11.2096 9.56988
11.2133 9.58957
11.2170 9.61115
11.2207 9.63473
11.2245 9.66032
11.2291 9.69497
11.2337 9.73256
11.2383 9.77299
11.2429 9.81600
11.2476 9.86133
11.2522 9.90831
11.2614 10.0052
11.2707 10.1014
11.2753 10.1471
11.2799 10.1902
11.2856 10.2379
11.2912 10.2788
11.2969 10.3116
11.3025 10.3352
11.3071 10.3468
11.3116 10.3517
11.3137 10.3516
11.3183 10.3461
11.3229 10.3336
11.3280 10.3120
11.3330 10.2827
11.3385 10.2430
11.3440 10.1961
11.3478 10.1608
11.3515 10.1233
11.3590 10.0434
11.3740 9.87620
11.3815 9.79532
11.3852 9.75667
11.3890 9.71962
11.3940 9.67275
11.3990 9.62919
11.4040 9.58915
11.4090 9.55269
11.4140 9.51980
11.4190 9.49038
11.4240 9.46426
11.4290 9.44126
11.4340 9.42106
11.4390 9.40344
11.4440 9.38811
11.4490 9.37484
11.4540 9.36332
11.4590 9.35334
11.4640 9.34467
11.4690 9.33713
11.4750 9.32929
11.4810 9.32254
11.4870 9.31667
11.4929 9.31150
11.5049 9.30269
11.5169 9.29529
11.5339 9.28627
11.5509 9.27827
11.5849 9.26389
11.6189 9.25071
11.6529 9.23820
11.7209 9.21437
11.7888 9.19147
11.9248 9.14711
12.0607 9.10408
12.1967 9.06195
12.3326 9.02051
12.6045 8.93906
12.7644 8.89177
12.9244 8.84470
13.0843 8.79782
13.2442 8.75097
13.4042 8.70407
13.5641 8.65699
13.8840 8.56197
14.0439 8.51377
14.2038 8.46508
14.3638 8.41578
14.5237 8.36565
14.6836 8.31484
14.8436 8.26304
15.0035 8.21042
15.1634 8.15656
15.3393 8.09592
15.5153 8.03372
15.6912 7.96980
15.8671 7.90405
16.0431 7.83632
16.2190 7.76647
16.3949 7.69437
16.5708 7.61991
16.7228 7.55360
16.8747 7.48540
17.0267 7.41527
17.1026 7.37948
17.1786 7.34322
17.2546 7.30648
17.3305 7.26929
17.4065 7.23166
17.4825 7.19361
17.5584 7.15519
17.6344 7.11644
17.7104 7.07737
17.7863 7.03807
17.8743 6.99236
17.9623 6.94662
18.0502 6.90102
18.1382 6.85582
18.2262 6.81133
18.3141 6.76796
18.4021 6.72622
18.4900 6.68674
18.5700 6.65350
18.6500 6.62358
18.7299 6.59796
18.7699 6.58714
18.8099 6.57789
18.8499 6.57040
18.8899 6.56492
18.9299 6.56172
18.9698 6.56111
19.0098 6.56343
19.0498 6.56908
19.0898 6.57852
19.1298 6.59236
19.1678 6.61036
19.2057 6.63409
19.2437 6.66520
19.2817 6.70763
19.3007 6.73636
19.3197 6.77412
19.3387 6.82662
19.3482 6.86101
19.3577 6.90254
19.3672 6.95283
19.3767 7.01336
19.3862 7.08584
19.3957 7.17149
19.4052 7.27152
19.4147 7.38614
19.4242 7.51525
19.4336 7.65725
19.4476 7.88514
19.4616 8.12354
19.4756 8.35616
19.4896 8.56350
19.4981 8.66916
19.5066 8.75486
19.5136 8.80852
19.5150 8.81744
19.5207 8.84605
19.5249 8.86019
19.5291 8.86806
19.5359 8.86779
19.5426 8.85245
19.5512 8.81228
19.5598 8.75202
19.5770 8.58673
19.5942 8.39170
19.6087 8.22981
19.6232 8.08785
19.6377 7.97632
19.6522 7.90018
19.6667 7.85933
19.6812 7.85053
19.6956 7.86882
19.7101 7.90898
19.7246 7.96638
19.7391 8.03725
19.7681 8.20987
19.7971 8.41552
19.8261 8.65143
19.8478 8.84909
19.8696 9.06593
19.8913 9.30369
19.9130 9.56441
19.9348 9.85047
19.9565 10.1646
19.9783 10.5098
20.0000 10.8898
20.0209 11.2913
20.0418 11.7325
20.0627 12.2186
20.0835 12.7546
