U-238(n,total fission) ENDFB-8.0
Energy(eV) XS(b)
1.00000E-05 0.000929055
1.03125E-05 0.000914870
1.06250E-05 0.000901316
1.09375E-05 0.000888347
1.12500E-05 0.000875922
1.15625E-05 0.000864004
1.18750E-05 0.000852560
1.21875E-05 0.000841559
1.25000E-05 0.000830972
1.28125E-05 0.000820776
1.31250E-05 0.000810946
1.34375E-05 0.000801461
1.37500E-05 0.000792301
1.43750E-05 0.000774886
1.50000E-05 0.000758571
1.56250E-05 0.000743245
1.62500E-05 0.000728811
1.68750E-05 0.000715188
1.75000E-05 0.000702300
1.81250E-05 0.000690085
1.87500E-05 0.000678487
1.93750E-05 0.000667454
2.00000E-05 0.000656942
2.09375E-05 0.000642066
2.18750E-05 0.000628157
2.28125E-05 0.000615114
2.37500E-05 0.000602851
2.46875E-05 0.000591294
2.56250E-05 0.000580377
2.65625E-05 0.000570043
2.75000E-05 0.000560242
2.84375E-05 0.000550930
2.93750E-05 0.000542068
3.03125E-05 0.000533619
3.12500E-05 0.000525554
3.21875E-05 0.000517844
3.31250E-05 0.000510463
3.40625E-05 0.000503390
3.50000E-05 0.000496602
3.59375E-05 0.000490082
3.68750E-05 0.000483812
3.78125E-05 0.000477777
3.87500E-05 0.000471962
3.96875E-05 0.000466354
4.06250E-05 0.000460942
4.25000E-05 0.000450659
4.43750E-05 0.000441036
4.62500E-05 0.000432003
4.81250E-05 0.000423504
5.00000E-05 0.000415488
5.15625E-05 0.000409144
5.31250E-05 0.000403082
5.46875E-05 0.000397282
5.62500E-05 0.000391726
5.78125E-05 0.000386396
5.93750E-05 0.000381278
6.09375E-05 0.000376358
6.25000E-05 0.000371624
6.40625E-05 0.000367064
6.56250E-05 0.000362668
6.71875E-05 0.000358426
6.87500E-05 0.000354330
7.18750E-05 0.000346541
7.50000E-05 0.000339245
7.81250E-05 0.000332391
8.12500E-05 0.000325936
8.43750E-05 0.000319844
8.75000E-05 0.000314080
9.06250E-05 0.000308618
9.37500E-05 0.000303430
9.68750E-05 0.000298496
0.000100000 0.000293795
0.000103125 0.000289310
0.000106250 0.000285024
0.000109375 0.000280922
0.000112500 0.000276993
0.000115625 0.000273225
0.000118750 0.000269606
0.000121875 0.000266127
0.000125000 0.000262779
0.000128125 0.000259555
0.000131250 0.000256446
0.000134375 0.000253447
0.000137500 0.000250550
0.000143750 0.000245043
0.000150000 0.000239884
0.000156250 0.000235037
0.000162500 0.000230473
0.000168750 0.000226165
0.000175000 0.000222090
0.000181250 0.000218227
0.000187500 0.000214559
0.000193750 0.000211070
0.000200000 0.000207746
0.000209375 0.000203042
0.000218750 0.000198644
0.000228125 0.000194519
0.000237500 0.000190642
0.000246875 0.000186987
0.000256250 0.000183535
0.000265625 0.000180267
0.000275000 0.000177168
0.000284375 0.000174223
0.000293750 0.000171420
0.000303125 0.000168749
0.000312500 0.000166199
0.000321875 0.000163760
0.000331250 0.000161427
0.000340625 0.000159190
0.000350000 0.000157043
0.000359375 0.000154982
0.000368750 0.000152999
0.000378125 0.000151090
0.000387500 0.000149252
0.000396875 0.000147478
0.000406250 0.000145767
0.000425000 0.000142515
0.000443750 0.000139472
0.000462500 0.000136616
0.000481250 0.000133928
0.000500000 0.000131393
0.000515625 0.000129387
0.000531250 0.000127471
0.000546875 0.000125637
0.000562500 0.000123880
0.000578125 0.000122194
0.000593750 0.000120576
0.000609375 0.000119020
0.000625000 0.000117523
0.000640625 0.000116081
0.000656250 0.000114691
0.000671875 0.000113350
0.000687500 0.000112054
0.000718750 0.000109592
0.000750000 0.000107285
0.000781250 0.000105117
0.000812500 0.000103076
0.000843750 0.000101150
0.000875000 9.93273E-05
0.000906250 9.76000E-05
0.000937500 9.59598E-05
0.000968750 9.43997E-05
0.00100000 9.29132E-05
0.00103125 9.14949E-05
0.00106250 9.01396E-05
0.00109375 8.88429E-05
0.00112500 8.76005E-05
0.00115625 8.64089E-05
0.00118750 8.52646E-05
0.00121875 8.41646E-05
0.00125000 8.31062E-05
0.00128125 8.20867E-05
0.00131250 8.11038E-05
0.00134375 8.01555E-05
0.00137500 7.92396E-05
0.00143750 7.74984E-05
0.00150000 7.58671E-05
0.00156250 7.43347E-05
0.00162500 7.28916E-05
0.00168750 7.15295E-05
0.00175000 7.02409E-05
0.00181250 6.90196E-05
0.00187500 6.78599E-05
0.00193750 6.67568E-05
0.00200000 6.57058E-05
0.00209375 6.42184E-05
0.00218750 6.28277E-05
0.00228125 6.15236E-05
0.00237500 6.02975E-05
0.00246875 5.91419E-05
0.00256250 5.80503E-05
0.00265625 5.70171E-05
0.00275000 5.60371E-05
0.00284375 5.51061E-05
0.00293750 5.42200E-05
0.00303125 5.33753E-05
0.00312500 5.25690E-05
0.00321875 5.17981E-05
0.00331250 5.10603E-05
0.00340625 5.03531E-05
0.00350000 4.96745E-05
0.00359375 4.90227E-05
0.00368750 4.83959E-05
0.00378125 4.77926E-05
0.00387500 4.72113E-05
0.00396875 4.66508E-05
0.00406250 4.61097E-05
0.00425000 4.50818E-05
0.00443750 4.41198E-05
0.00462500 4.32169E-05
0.00481250 4.23673E-05
0.00500000 4.15659E-05
0.00515625 4.09318E-05
0.00531250 4.03259E-05
0.00546875 3.97461E-05
0.00562500 3.91907E-05
0.00578125 3.86580E-05
0.00593750 3.81465E-05
0.00609375 3.76548E-05
0.00625000 3.71816E-05
0.00640625 3.67259E-05
0.00656250 3.62866E-05
0.00671875 3.58627E-05
0.00687500 3.54534E-05
0.00718750 3.46751E-05
0.00750000 3.39460E-05
0.00781250 3.32610E-05
0.00812500 3.26160E-05
0.00843750 3.20071E-05
0.00875000 3.14311E-05
0.00906250 3.08851E-05
0.00937500 3.03667E-05
0.00968750 2.98736E-05
0.0100000 2.94038E-05
0.0103125 2.89556E-05
0.0106250 2.85273E-05
0.0109375 2.81175E-05
0.0112500 2.77249E-05
0.0115625 2.73484E-05
0.0118750 2.69869E-05
0.0121875 2.66394E-05
0.0125000 2.63051E-05
0.0128125 2.59831E-05
0.0131250 2.56727E-05
0.0134375 2.53731E-05
0.0137500 2.50839E-05
0.0143750 2.45340E-05
0.0150000 2.40188E-05
0.0156250 2.35348E-05
0.0162500 2.30790E-05
0.0168750 2.26487E-05
0.0175000 2.22417E-05
0.0181250 2.18559E-05
0.0187500 2.14896E-05
0.0193750 2.11412E-05
0.0200000 2.08093E-05
0.0206625 2.04741E-05
0.0213250 2.01546E-05
0.0219875 1.98497E-05
0.0226500 1.95583E-05
0.0233125 1.92794E-05
0.0239750 1.90123E-05
0.0246375 1.87559E-05
0.0253000 1.85097E-05
0.0264578 1.81020E-05
0.0276156 1.77202E-05
0.0287734 1.73617E-05
0.0299313 1.70243E-05
0.0310891 1.67061E-05
0.0322469 1.64052E-05
0.0334047 1.61202E-05
0.0345625 1.58496E-05
0.0355274 1.56343E-05
0.0364922 1.54275E-05
0.0374570 1.52287E-05
0.0384219 1.50375E-05
0.0393867 1.48533E-05
0.0403516 1.46758E-05
0.0413164 1.45046E-05
0.0422813 1.43393E-05
0.0442109 1.40250E-05
0.0461406 1.37308E-05
0.0480703 1.34545E-05
0.0500000 1.31944E-05
0.0515625 1.29947E-05
0.0531250 1.28038E-05
0.0546875 1.26212E-05
0.0562500 1.24463E-05
0.0578125 1.22785E-05
0.0593750 1.21175E-05
0.0609375 1.19627E-05
0.0625000 1.18138E-05
0.0640625 1.16704E-05
0.0656250 1.15323E-05
0.0671875 1.13990E-05
0.0687500 1.12704E-05
0.0718750 1.10258E-05
0.0750000 1.07966E-05
0.0781250 1.05812E-05
0.0812500 1.03785E-05
0.0843750 1.01871E-05
0.0875000 1.00061E-05
0.0906250 9.83467E-06
0.0937500 9.67191E-06
0.0968750 9.51713E-06
0.100000 9.36970E-06
0.103125 9.22908E-06
0.106250 9.09474E-06
0.109375 8.96625E-06
0.112500 8.84318E-06
0.115625 8.72517E-06
0.118750 8.61188E-06
0.121875 8.50301E-06
0.125000 8.39829E-06
0.128125 8.29747E-06
0.131250 8.20034E-06
0.134375 8.10670E-06
0.137500 8.01634E-06
0.143750 7.84456E-06
0.150000 7.68353E-06
0.156250 7.53228E-06
0.162500 7.38993E-06
0.168750 7.25564E-06
0.175000 7.12869E-06
0.181250 7.00844E-06
0.187500 6.89434E-06
0.193750 6.78593E-06
0.200000 6.68280E-06
0.209375 6.53691E-06
0.218750 6.40046E-06
0.228125 6.27261E-06
0.237500 6.15251E-06
0.246875 6.03943E-06
0.256250 5.93272E-06
0.265625 5.83181E-06
0.275000 5.73620E-06
0.284375 5.64545E-06
0.293750 5.55916E-06
0.303125 5.47698E-06
0.312500 5.39861E-06
0.321875 5.32377E-06
0.331250 5.25220E-06
0.340625 5.18367E-06
0.350000 5.11798E-06
0.359375 5.05494E-06
0.368750 4.99439E-06
0.378125 4.93616E-06
0.387500 4.88012E-06
0.396875 4.82618E-06
0.406250 4.77428E-06
0.425000 4.67573E-06
0.443750 4.58348E-06
0.462500 4.49708E-06
0.500000 4.33990E-06
0.531250 4.22236E-06
0.562500 4.11491E-06
0.625000 3.92584E-06
0.687500 3.76454E-06
0.750000 3.62508E-06
0.812500 3.50317E-06
0.875000 3.39585E-06
0.937500 3.30041E-06
1.00000 3.21475E-06
1.06250 3.13763E-06
1.12500 3.06788E-06
1.25000 2.94672E-06
1.37500 2.84540E-06
1.50000 2.75979E-06
1.62500 2.68693E-06
1.75000 2.62478E-06
1.87500 2.57155E-06
2.00000 2.52576E-06
2.13104 2.48502E-06
2.26209 2.45130E-06
2.39313 2.42304E-06
2.52418 2.40003E-06
2.65522 2.38190E-06
2.78626 2.36840E-06
2.91731 2.35943E-06
3.04835 2.35495E-06
3.17004 2.35491E-06
3.29172 2.35879E-06
3.41340 2.36597E-06
3.53509 2.37780E-06
3.65677 2.39402E-06
3.77845 2.41500E-06
3.90014 2.44119E-06
3.96098 2.45639E-06
4.02182 2.47313E-06
4.09202 2.49445E-06
4.16222 2.51804E-06
4.19733 2.53071E-06
4.23243 2.54407E-06
4.24998 2.55101E-06
4.26753 2.55813E-06
4.28508 2.56542E-06
4.29385 2.56914E-06
4.30263 2.57290E-06
4.30731 2.57493E-06
4.31199 2.57697E-06
4.31667 2.57902E-06
4.32135 2.58109E-06
4.32603 2.58317E-06
4.33071 2.58527E-06
4.33539 2.58738E-06
4.34007 2.58950E-06
4.34446 2.59150E-06
4.34885 2.59352E-06
4.35323 2.59554E-06
4.35762 2.59758E-06
4.36201 2.59963E-06
4.36640 2.60170E-06
4.37517 2.60587E-06
4.38219 2.60924E-06
4.38570 2.61094E-06
4.38921 2.61264E-06
4.39272 2.61436E-06
4.39624 2.61608E-06
4.39975 2.61782E-06
4.40326 2.61956E-06
4.40748 2.62166E-06
4.41029 2.62307E-06
4.41311 2.62448E-06
4.41592 2.62590E-06
4.41873 2.62733E-06
4.42185 2.62892E-06
4.42498 2.63051E-06
4.42810 2.63212E-06
4.43122 2.63373E-06
4.43604 2.63623E-06
4.44087 2.63875E-06
4.45052 2.64383E-06
4.45620 2.64686E-06
4.46187 2.64991E-06
4.46471 2.65144E-06
4.46755 2.65298E-06
4.47039 2.65453E-06
4.47323 2.65608E-06
4.47663 2.65795E-06
4.48004 2.65983E-06
4.48344 2.66172E-06
4.48685 2.66362E-06
4.49026 2.66553E-06
4.49366 2.66744E-06
4.50047 2.67130E-06
4.50501 2.67390E-06
4.50955 2.67651E-06
4.51608 2.68029E-06
4.52261 2.68411E-06
4.53567 2.69185E-06
4.54872 2.69974E-06
4.56178 2.70778E-06
4.58789 2.72430E-06
4.61400 2.74143E-06
4.66623 2.77767E-06
4.71845 2.81692E-06
4.77067 2.85919E-06
4.82290 2.90467E-06
4.87512 2.95360E-06
4.92734 3.00681E-06
4.96367 3.04657E-06
5.00000 3.08876E-06
5.05844 3.16205E-06
5.11687 3.24273E-06
5.17531 3.33194E-06
5.20453 3.38012E-06
5.23375 3.43093E-06
5.26296 3.48455E-06
5.29218 3.54119E-06
5.32140 3.60105E-06
5.35062 3.66429E-06
5.37984 3.73126E-06
5.40905 3.80246E-06
5.43827 3.87826E-06
5.46749 3.95901E-06
5.50320 4.06502E-06
5.53891 4.17995E-06
5.57462 4.30488E-06
5.61033 4.44107E-06
5.64604 4.58997E-06
5.68176 4.75331E-06
5.71747 4.93311E-06
5.73532 5.02992E-06
5.75318 5.13179E-06
5.78564 5.33122E-06
5.81811 5.55123E-06
5.83434 5.66991E-06
5.85057 5.79494E-06
5.86680 5.92680E-06
5.88303 6.06604E-06
5.89927 6.21324E-06
5.91550 6.36904E-06
5.93173 6.53411E-06
5.94796 6.70924E-06
5.96420 6.89530E-06
5.98043 7.09326E-06
5.99666 7.30430E-06
6.01289 7.52973E-06
6.03075 7.79609E-06
6.04860 8.08376E-06
6.06646 8.39518E-06
6.08431 8.73309E-06
6.10217 9.10074E-06
6.12003 9.50186E-06
6.13788 9.94087E-06
6.15574 1.04230E-05
6.17359 1.09543E-05
6.19145 1.15421E-05
6.20037 1.18599E-05
6.20930 1.21951E-05
6.21823 1.25493E-05
6.22716 1.29239E-05
6.23609 1.33205E-05
6.24501 1.37411E-05
6.25394 1.41877E-05
6.26287 1.46624E-05
6.27180 1.51679E-05
6.28072 1.57071E-05
6.28965 1.62830E-05
6.29858 1.68993E-05
6.31157 1.78763E-05
6.31806 1.84046E-05
6.32455 1.89621E-05
6.33348 1.97808E-05
6.34241 2.06661E-05
6.35134 2.16257E-05
6.36026 2.26686E-05
6.36919 2.38054E-05
6.37812 2.50481E-05
6.38705 2.64111E-05
6.39597 2.79110E-05
6.40490 2.95682E-05
6.41383 3.14066E-05
6.41829 3.24026E-05
6.42276 3.34553E-05
6.42722 3.45692E-05
6.43168 3.57494E-05
6.43615 3.70020E-05
6.44061 3.83334E-05
6.44508 3.97506E-05
6.44954 4.12616E-05
6.45400 4.28761E-05
6.45847 4.46044E-05
6.46293 4.64584E-05
6.46739 4.84515E-05
6.47105 5.01977E-05
6.47470 5.20574E-05
6.47653 5.30341E-05
6.47835 5.40432E-05
6.48018 5.50868E-05
6.48200 5.61669E-05
6.48383 5.72859E-05
6.48566 5.84448E-05
6.48748 5.96464E-05
6.48931 6.08932E-05
6.49114 6.21878E-05
6.49296 6.35330E-05
6.49479 6.49320E-05
6.49661 6.63881E-05
6.49803 6.75631E-05
6.49945 6.87758E-05
6.50087 7.00292E-05
6.50229 7.13252E-05
6.50372 7.26671E-05
6.50514 7.40556E-05
6.50656 7.54940E-05
6.50798 7.69851E-05
6.50894 7.80291E-05
6.50990 7.90997E-05
6.51087 8.01980E-05
6.51183 8.13251E-05
6.51280 8.24822E-05
6.51376 8.36705E-05
6.51472 8.48912E-05
6.51569 8.61444E-05
6.51690 8.77783E-05
6.51812 8.94713E-05
6.51924 9.10782E-05
6.52035 9.27400E-05
6.52147 9.44592E-05
6.52258 9.62387E-05
6.52370 9.80817E-05
6.52482 9.99912E-05
6.52593 0.000101971
6.52705 0.000104024
6.52801 0.000105859
6.52898 0.000107755
6.52994 0.000109714
6.53090 0.000111738
6.53187 0.000113831
6.53283 0.000115996
6.53380 0.000118235
6.53476 0.000120551
6.53588 0.000123337
6.53699 0.000126238
6.53811 0.000129261
6.53922 0.000132411
6.54034 0.000135696
6.54146 0.000139122
6.54257 0.000142697
6.54369 0.000146425
6.54480 0.000150320
6.54592 0.000154388
6.54703 0.000158638
6.54815 0.000163078
6.54927 0.000167719
6.55038 0.000172570
6.55150 0.000177642
6.55261 0.000182946
6.55373 0.000188492
6.55485 0.000194293
6.55596 0.000200360
6.55708 0.000206707
6.55819 0.000213346
6.55931 0.000220291
6.56043 0.000227556
6.56154 0.000235147
6.56266 0.000243094
6.56377 0.000251405
6.56489 0.000260096
6.56601 0.000269181
6.56712 0.000278679
6.56824 0.000288605
6.56935 0.000298976
6.57047 0.000309811
6.57159 0.000321125
6.57270 0.000332938
6.57382 0.000345267
6.57493 0.000358131
6.57605 0.000371548
6.57717 0.000385536
6.57828 0.000400114
6.57940 0.000415300
6.58051 0.000431114
6.58163 0.000447572
6.58275 0.000464693
6.58386 0.000482496
6.58498 0.000500997
6.58609 0.000520213
6.58721 0.000540162
6.58833 0.000560860
6.58944 0.000582321
6.59056 0.000604560
6.59167 0.000627592
6.59279 0.000651430
6.59502 0.000701568
6.59725 0.000755032
6.59938 0.000809282
6.60151 0.000866649
6.60364 0.000927199
6.60577 0.000990861
6.60791 0.00105766
6.61004 0.00112745
6.61217 0.00120022
6.61430 0.00127575
6.61653 0.00135772
6.61876 0.00144235
6.62099 0.00152937
6.62322 0.00161842
6.62769 0.00180137
6.63215 0.00198771
6.63662 0.00217354
6.64108 0.00235442
6.64554 0.00252572
6.65001 0.00268261
6.65447 0.00282040
6.65670 0.00288077
6.65893 0.00293477
6.66126 0.00298380
6.66358 0.00302502
6.66591 0.00305805
6.66823 0.00308259
6.67126 0.00310144
6.67428 0.00310521
6.67504 0.00310379
6.67750 0.00309264
6.67995 0.00307161
6.68241 0.00304093
6.68487 0.00300093
6.68740 0.00295048
6.68992 0.00289115
6.69245 0.00282354
6.69497 0.00274835
6.69760 0.00266296
6.70022 0.00257114
6.70285 0.00247376
6.70548 0.00237187
6.71073 0.00215828
6.71598 0.00193809
6.72218 0.00167889
6.72529 0.00155269
6.72839 0.00143023
6.73102 0.00133011
6.73364 0.00123372
6.73627 0.00114143
6.73889 0.00105354
6.74152 0.000970203
6.74414 0.000891621
6.74677 0.000817804
6.74939 0.000748819
6.75202 0.000684572
6.75465 0.000625021
6.75727 0.000569992
6.75990 0.000519364
6.76252 0.000472909
6.76384 0.000451188
6.76515 0.000430451
6.76646 0.000410638
6.76777 0.000391735
6.76909 0.000373713
6.77040 0.000356555
6.77231 0.000333034
6.77422 0.000311169
6.77613 0.000290846
6.77804 0.000271995
6.77995 0.000254508
6.78186 0.000238317
6.78377 0.000223321
6.78567 0.000209454
6.78758 0.000196625
6.78949 0.000184774
6.79140 0.000173817
6.79331 0.000163698
6.79522 0.000154345
6.79713 0.000145707
6.79904 0.000137720
6.80095 0.000130340
6.80358 0.000121084
6.80620 0.000112761
6.80883 0.000105267
6.81145 9.85107E-05
6.81408 9.24032E-05
6.81670 8.68749E-05
6.81933 8.18558E-05
6.82196 7.72912E-05
6.82458 7.31265E-05
6.82721 6.93194E-05
6.82983 6.58273E-05
6.83246 6.26180E-05
6.83508 5.96585E-05
6.83771 5.69242E-05
6.84033 5.43896E-05
6.84296 5.20360E-05
6.84559 4.98436E-05
6.84821 4.77975E-05
6.85084 4.58838E-05
6.85346 4.40908E-05
6.85609 4.24065E-05
6.85871 4.08225E-05
6.86396 3.79202E-05
6.86922 3.53266E-05
6.87447 3.29963E-05
6.87972 3.08924E-05
6.88497 2.89847E-05
6.88927 2.75521E-05
6.89356 2.62229E-05
6.89786 2.49865E-05
6.90215 2.38347E-05
6.90645 2.27592E-05
6.91075 2.17538E-05
6.91504 2.08121E-05
6.91934 1.99289E-05
6.92364 1.90990E-05
6.92793 1.83187E-05
6.93223 1.75839E-05
6.93652 1.68910E-05
6.94512 1.56187E-05
6.95371 1.44805E-05
6.95896 1.38428E-05
6.96421 1.32449E-05
6.96946 1.26834E-05
6.97471 1.21556E-05
6.97997 1.16588E-05
6.98522 1.11906E-05
6.99572 1.03320E-05
7.00622 9.56490E-06
7.01672 8.87722E-06
7.02723 8.25855E-06
7.03773 7.70019E-06
7.04823 7.19475E-06
7.05873 6.73603E-06
7.06923 6.31860E-06
7.07974 5.93785E-06
7.09024 5.58974E-06
7.10074 5.27086E-06
7.11124 4.97814E-06
7.12175 4.70894E-06
7.13320 4.43933E-06
7.14466 4.19227E-06
7.15516 3.98359E-06
7.16566 3.79033E-06
7.17617 3.61106E-06
7.18667 3.44453E-06
7.19717 3.28962E-06
7.20767 3.14537E-06
7.21818 3.01089E-06
7.22868 2.88536E-06
7.23918 2.76807E-06
7.24968 2.65839E-06
7.26018 2.55571E-06
7.27069 2.45950E-06
7.29169 2.28460E-06
7.31269 2.13026E-06
7.33370 1.99365E-06
7.35470 1.87240E-06
7.37571 1.76450E-06
7.39671 1.66826E-06
7.41772 1.58223E-06
7.43872 1.50519E-06
7.45973 1.43608E-06
7.48073 1.37400E-06
7.49982 1.32300E-06
7.51892 1.27661E-06
7.53801 1.23434E-06
7.55711 1.19577E-06
7.57620 1.16053E-06
7.59530 1.12832E-06
7.61439 1.09887E-06
7.63349 1.07197E-06
7.65640 1.04274E-06
7.66967 1.02722E-06
7.67388 1.02249E-06
7.68092 1.01481E-06
7.70180 9.93444E-07
7.72269 9.74099E-07
7.74528 9.55223E-07
7.76787 9.38257E-07
7.79047 9.22999E-07
7.81306 9.09279E-07
7.83565 8.96955E-07
7.85824 8.85909E-07
7.88084 8.76031E-07
7.90343 8.67219E-07
7.94861 8.52426E-07
7.99380 8.40882E-07
8.03898 8.32054E-07
8.08417 8.25504E-07
8.12032 8.21660E-07
8.15646 8.18886E-07
8.19261 8.17047E-07
8.22876 8.16026E-07
8.25813 8.15729E-07
8.28750 8.15856E-07
8.34624 8.17220E-07
8.40498 8.19826E-07
8.46372 8.23438E-07
8.52246 8.27874E-07
8.58120 8.32985E-07
8.63994 8.38610E-07
8.69868 8.44653E-07
8.74838 8.50038E-07
8.79809 8.55628E-07
8.84779 8.61387E-07
8.89749 8.67282E-07
8.94720 8.73289E-07
8.99690 8.79384E-07
9.04660 8.85548E-07
9.09631 8.91767E-07
9.14601 8.98025E-07
9.19571 9.04313E-07
9.29512 9.16937E-07
9.39453 9.29580E-07
9.49393 9.42202E-07
9.54815 9.49067E-07
9.60238 9.55915E-07
9.65660 9.62743E-07
9.71082 9.69549E-07
9.76504 9.76335E-07
9.81926 9.83098E-07
9.87348 9.89837E-07
9.90060 9.93199E-07
9.92771 9.96554E-07
9.94578 9.98788E-07
9.96385 1.00102E-06
9.98193 1.00325E-06
10.0000 1.00548E-06
10.0143 1.00723E-06
10.0285 1.00899E-06
10.0357 1.00987E-06
10.0428 1.01074E-06
10.0500 1.01162E-06
10.0571 1.01250E-06
10.0642 1.01337E-06
10.0714 1.01425E-06
10.0749 1.01468E-06
10.0785 1.01512E-06
10.0821 1.01556E-06
10.0856 1.01600E-06
10.0892 1.01643E-06
10.0928 1.01687E-06
10.0963 1.01731E-06
10.0999 1.01774E-06
10.1035 1.01818E-06
10.1070 1.01862E-06
10.1106 1.01905E-06
10.1142 1.01949E-06
10.1171 1.01985E-06
10.1200 1.02020E-06
10.1229 1.02056E-06
10.1258 1.02091E-06
10.1287 1.02126E-06
10.1316 1.02162E-06
10.1345 1.02197E-06
10.1373 1.02233E-06
10.1402 1.02268E-06
10.1431 1.02304E-06
10.1460 1.02339E-06
10.1489 1.02375E-06
10.1518 1.02410E-06
10.1547 1.02445E-06
10.1576 1.02481E-06
10.1605 1.02516E-06
10.1634 1.02552E-06
10.1663 1.02587E-06
10.1692 1.02622E-06
10.1721 1.02658E-06
10.1779 1.02729E-06
10.1837 1.02799E-06
10.1926 1.02908E-06
10.1971 1.02962E-06
10.2016 1.03017E-06
10.2065 1.03077E-06
10.2114 1.03136E-06
10.2163 1.03196E-06
10.2212 1.03256E-06
10.2258 1.03312E-06
10.2304 1.03368E-06
10.2350 1.03423E-06
10.2395 1.03479E-06
10.2441 1.03535E-06
10.2487 1.03591E-06
10.2518 1.03629E-06
10.2549 1.03666E-06
10.2590 1.03716E-06
10.2631 1.03766E-06
10.2688 1.03835E-06
10.2744 1.03904E-06
10.2801 1.03973E-06
10.2857 1.04041E-06
10.2970 1.04178E-06
10.3027 1.04247E-06
10.3083 1.04316E-06
10.3124 1.04365E-06
10.3166 1.04415E-06
10.3207 1.04465E-06
10.3248 1.04515E-06
10.3289 1.04565E-06
10.3309 1.04590E-06
10.3330 1.04615E-06
10.3351 1.04640E-06
10.3371 1.04665E-06
10.3392 1.04690E-06
10.3412 1.04714E-06
10.3433 1.04739E-06
10.3453 1.04764E-06
10.3474 1.04789E-06
10.3494 1.04814E-06
10.3515 1.04839E-06
10.3535 1.04864E-06
10.3556 1.04889E-06
10.3576 1.04914E-06
10.3597 1.04939E-06
10.3618 1.04964E-06
10.3638 1.04989E-06
10.3659 1.05013E-06
10.3679 1.05038E-06
10.3700 1.05063E-06
10.3720 1.05088E-06
10.3741 1.05113E-06
10.3782 1.05163E-06
