SA508 Gr.3 Steel Total Macroscopic Cross-Section
Energy(eV) XS(b)
1e-05 1.91498e+25
1.03125e-05 1.88591e+25
1.0625e-05 1.85814e+25
1.09375e-05 1.83156e+25
1.125e-05 1.80611e+25
1.15625e-05 1.78169e+25
1.1875e-05 1.75825e+25
1.21875e-05 1.73571e+25
1.25e-05 1.71403e+25
1.28125e-05 1.69314e+25
1.3125e-05 1.67301e+25
1.34375e-05 1.65359e+25
1.375e-05 1.63484e+25
1.4375e-05 1.59919e+25
1.5e-05 1.56579e+25
1.5625e-05 1.53442e+25
1.625e-05 1.50489e+25
1.6875e-05 1.47702e+25
1.75e-05 1.45066e+25
1.8125e-05 1.42568e+25
1.875e-05 1.40197e+25
1.9375e-05 1.37941e+25
2e-05 1.35793e+25
2.09375e-05 1.32752e+25
2.1875e-05 1.29911e+25
2.28125e-05 1.27247e+25
2.375e-05 1.24743e+25
2.46875e-05 1.22383e+25
2.5625e-05 1.20155e+25
2.65625e-05 1.18047e+25
2.75e-05 1.16048e+25
2.84375e-05 1.14148e+25
2.9375e-05 1.12342e+25
3.03125e-05 1.1062e+25
3.125e-05 1.08977e+25
3.21875e-05 1.07406e+25
3.3125e-05 1.05903e+25
3.40625e-05 1.04462e+25
3.5e-05 1.03081e+25
3.59375e-05 1.01754e+25
3.6875e-05 1.00478e+25
3.78125e-05 9.92509e+24
3.875e-05 9.80685e+24
3.96875e-05 9.69278e+24
4.0625e-05 9.5828e+24
4.25e-05 9.37393e+24
4.4375e-05 9.17852e+24
4.625e-05 8.99513e+24
4.8125e-05 8.82274e+24
5e-05 8.66023e+24
5.15625e-05 8.53165e+24
5.3125e-05 8.40887e+24
5.46875e-05 8.29142e+24
5.625e-05 8.17896e+24
5.78125e-05 8.07113e+24
5.9375e-05 7.96763e+24
6.09375e-05 7.86817e+24
6.25e-05 7.77251e+24
6.40625e-05 7.68041e+24
6.5625e-05 7.59166e+24
6.71875e-05 7.50606e+24
6.875e-05 7.42342e+24
7.1875e-05 7.2664e+24
7.5e-05 7.11943e+24
7.8125e-05 6.98149e+24
8.125e-05 6.85168e+24
8.4375e-05 6.72926e+24
8.75e-05 6.61354e+24
9.0625e-05 6.50396e+24
9.375e-05 6.39999e+24
9.6875e-05 6.30117e+24
0.0001 6.20709e+24
0.000103125 6.1174e+24
0.00010625 6.03177e+24
0.000109375 5.94989e+24
0.0001125 5.87151e+24
0.000115625 5.79639e+24
0.00011875 5.72431e+24
0.000121875 5.65509e+24
0.000125 5.58852e+24
0.000128125 5.52446e+24
0.00013125 5.46274e+24
0.000134375 5.40324e+24
0.0001375 5.34582e+24
0.00014375 5.23678e+24
0.00015 5.13479e+24
0.00015625 5.03913e+24
0.0001625 4.94917e+24
0.00016875 4.86439e+24
0.000175 4.78431e+24
0.00018125 4.70853e+24
0.0001875 4.63667e+24
0.00019375 4.56843e+24
0.0002 4.5035e+24
0.000209375 4.41177e+24
0.00021875 4.3262e+24
0.000228125 4.24613e+24
0.0002375 4.17101e+24
0.000246875 4.10036e+24
0.00025625 4.03377e+24
0.000265625 3.97086e+24
0.000275 3.91132e+24
0.000284375 3.85485e+24
0.00029375 3.80123e+24
0.000303125 3.75022e+24
0.0003125 3.70161e+24
0.000321875 3.65523e+24
0.00033125 3.61093e+24
0.000340625 3.56855e+24
0.00035 3.52796e+24
0.000359375 3.48904e+24
0.00036875 3.45168e+24
0.000378125 3.4158e+24
0.0003875 3.38128e+24
0.000396875 3.34805e+24
0.00040625 3.31604e+24
0.000425 3.25539e+24
0.00044375 3.19883e+24
0.0004625 3.14592e+24
0.00048125 3.0963e+24
0.0005 3.04966e+24
0.000515625 3.01287e+24
0.00053125 2.9778e+24
0.000546875 2.94433e+24
0.0005625 2.91236e+24
0.000578125 2.88176e+24
0.00059375 2.85246e+24
0.000609375 2.82436e+24
0.000625 2.79739e+24
0.000640625 2.77147e+24
0.00065625 2.74655e+24
0.000671875 2.72255e+24
0.0006875 2.69944e+24
0.00071875 2.65563e+24
0.00075 2.61478e+24
0.00078125 2.57657e+24
0.0008125 2.54073e+24
0.00084375 2.50705e+24
0.000875 2.47531e+24
0.00090625 2.44535e+24
0.0009375 2.41699e+24
0.00096875 2.39013e+24
0.001 2.36463e+24
0.00103125 2.34037e+24
0.0010625 2.31728e+24
0.00109375 2.29525e+24
0.001125 2.27422e+24
0.00115625 2.25411e+24
0.0011875 2.23485e+24
0.00121875 2.2164e+24
0.00125 2.19869e+24
0.00128125 2.18168e+24
0.0013125 2.16533e+24
0.00134375 2.1496e+24
0.001375 2.13445e+24
0.0014375 2.10574e+24
0.0015 2.07899e+24
0.0015625 2.05397e+24
0.001625 2.03051e+24
0.0016875 2.00846e+24
0.00175 1.9877e+24
0.0018125 1.96809e+24
0.001875 1.94954e+24
0.0019375 1.93196e+24
0.002 1.91527e+24
0.00209375 1.89175e+24
0.0021875 1.86985e+24
0.00228125 1.84942e+24
0.002375 1.83028e+24
0.00246875 1.81232e+24
0.0025625 1.79542e+24
0.00265625 1.77948e+24
0.00275 1.76441e+24
0.00284375 1.75015e+24
0.0029375 1.73661e+24
0.00303125 1.72375e+24
0.003125 1.71151e+24
0.00321875 1.69983e+24
0.0033125 1.68869e+24
0.00340625 1.67803e+24
0.0035 1.66783e+24
0.00359375 1.65805e+24
0.0036875 1.64868e+24
0.00378125 1.63967e+24
0.003875 1.63101e+24
0.00396875 1.62268e+24
0.0040625 1.61465e+24
0.00425 1.59944e+24
0.0044375 1.58526e+24
0.004625 1.57199e+24
0.0048125 1.55955e+24
0.005 1.54785e+24
0.00515625 1.53862e+24
0.0053125 1.52981e+24
0.00546875 1.52141e+24
0.005625 1.51337e+24
0.00578125 1.50567e+24
0.0059375 1.4983e+24
0.00609375 1.49123e+24
0.00625 1.48443e+24
0.00640625 1.4779e+24
0.0065625 1.47161e+24
0.00671875 1.46556e+24
0.006875 1.45971e+24
0.0071875 1.44863e+24
0.0075 1.43828e+24
0.0078125 1.42858e+24
0.008125 1.41947e+24
0.0084375 1.41089e+24
0.00875 1.40279e+24
0.0090625 1.39514e+24
0.009375 1.38788e+24
0.0096875 1.38099e+24
0.01 1.37443e+24
0.0103125 1.36819e+24
0.010625 1.36224e+24
0.0109375 1.35656e+24
0.01125 1.35111e+24
0.0115625 1.3459e+24
0.011875 1.34091e+24
0.0121875 1.33611e+24
0.0125 1.3315e+24
0.0128125 1.32707e+24
0.013125 1.3228e+24
0.0134375 1.31868e+24
0.01375 1.31471e+24
0.014375 1.30718e+24
0.015 1.30013e+24
0.015625 1.29354e+24
0.01625 1.28733e+24
0.016875 1.28148e+24
0.0175 1.27596e+24
0.018125 1.27073e+24
0.01875 1.26577e+24
0.019375 1.26106e+24
0.02 1.25658e+24
0.0206625 1.25206e+24
0.021325 1.24776e+24
0.0219875 1.24366e+24
0.02265 1.23975e+24
0.0233125 1.236e+24
0.023975 1.23243e+24
0.0246375 1.22899e+24
0.0253 1.2257e+24
0.0264578 1.22025e+24
0.0276156 1.21516e+24
0.0287734 1.21038e+24
0.0299313 1.20589e+24
0.0310891 1.20166e+24
0.0322469 1.19767e+24
0.0334047 1.19388e+24
0.0345625 1.1903e+24
0.0355274 1.18744e+24
0.0364922 1.18471e+24
0.037457 1.18209e+24
0.0384219 1.17956e+24
0.0393867 1.17713e+24
0.0403516 1.17479e+24
0.0413164 1.17253e+24
0.0422813 1.17035e+24
0.0442109 1.16622e+24
0.0461406 1.16235e+24
0.0480703 1.15873e+24
0.05 1.15531e+24
0.0515625 1.15269e+24
0.053125 1.15019e+24
0.0546875 1.1478e+24
0.05625 1.14551e+24
0.0578125 1.14332e+24
0.059375 1.14121e+24
0.0609375 1.13919e+24
0.0625 1.13724e+24
0.0640625 1.13537e+24
0.065625 1.13357e+24
0.0671875 1.13183e+24
0.06875 1.13015e+24
0.071875 1.12696e+24
0.075 1.12397e+24
0.078125 1.12118e+24
0.08125 1.11854e+24
0.084375 1.11605e+24
0.0875 1.1137e+24
0.090625 1.11147e+24
0.09375 1.10936e+24
0.096875 1.10735e+24
0.1 1.10544e+24
0.103125 1.10362e+24
0.10625 1.10187e+24
0.109375 1.10021e+24
0.1125 1.09861e+24
0.115625 1.09708e+24
0.11875 1.09561e+24
0.121875 1.0942e+24
0.125 1.09285e+24
0.128125 1.09154e+24
0.13125 1.09028e+24
0.134375 1.08907e+24
0.1375 1.0879e+24
0.14375 1.08567e+24
0.15 1.08359e+24
0.15625 1.08164e+24
0.1625 1.07979e+24
0.16875 1.07805e+24
0.175 1.07641e+24
0.18125 1.07485e+24
0.1875 1.07337e+24
0.19375 1.07197e+24
0.2 1.07063e+24
0.209375 1.06874e+24
0.21875 1.06697e+24
0.228125 1.06531e+24
0.2375 1.06375e+24
0.246875 1.06229e+24
0.25625 1.0609e+24
0.265625 1.05958e+24
0.275 1.05834e+24
0.284375 1.05716e+24
0.29375 1.05603e+24
0.303125 1.05497e+24
0.3125 1.05394e+24
0.321875 1.05296e+24
0.33125 1.05203e+24
0.340625 1.05113e+24
0.35 1.05027e+24
0.359375 1.04945e+24
0.36875 1.04865e+24
0.378125 1.04788e+24
0.3875 1.04715e+24
0.396875 1.04644e+24
0.40625 1.04576e+24
0.425 1.04445e+24
0.44375 1.04324e+24
0.4625 1.04209e+24
0.5 1.04e+24
0.53125 1.03844e+24
0.5625 1.037e+24
0.59375 1.03568e+24
0.625 1.03445e+24
0.6875 1.03227e+24
0.75 1.03035e+24
0.8125 1.02866e+24
0.875 1.02716e+24
0.9375 1.02581e+24
1 1.02458e+24
1.0625 1.02346e+24
1.125 1.02244e+24
1.1875 1.02149e+24
1.25 1.02062e+24
1.375 1.01905e+24
1.5 1.01767e+24
1.625 1.01646e+24
1.75 1.01538e+24
1.875 1.0144e+24
2 1.01351e+24
2.1875 1.01231e+24
2.375 1.01126e+24
2.5625 1.01031e+24
2.75 1.00946e+24
2.9375 1.00869e+24
3.125 1.00798e+24
3.3125 1.00732e+24
3.5 1.00672e+24
3.875 1.00563e+24
4.25 1.00467e+24
4.625 1.00382e+24
5 1.00305e+24
5.3125 1.00247e+24
5.625 1.00192e+24
5.9375 1.00142e+24
6.25 1.00094e+24
6.875 1.00006e+24
7.5 9.99275e+23
8.125 9.98556e+23
8.75 9.97891e+23
9.375 9.97277e+23
10 9.96707e+23
10.625 9.96173e+23
11.25 9.95665e+23
11.875 9.95183e+23
12.5 9.94727e+23
13.75 9.9386e+23
15 9.93063e+23
16.25 9.92318e+23
17.5 9.9161e+23
18.75 9.90936e+23
20 9.90298e+23
21.25 9.89678e+23
21.875 9.8938e+23
22.5 9.89083e+23
23.75 9.88498e+23
25 9.8794e+23
25.625 9.87669e+23
27.5 9.86859e+23
30 9.85824e+23
32.5 9.84815e+23
35 9.83843e+23
37.5 9.82891e+23
38.75 9.82427e+23
40 9.81965e+23
42.5 9.81058e+23
45 9.80172e+23
46.25 9.79737e+23
47.5 9.79304e+23
50 9.78447e+23
52.5 9.77611e+23
55 9.76783e+23
57.5 9.75968e+23
60 9.75161e+23
62.5 9.74359e+23
65 9.73579e+23
67.5 9.72798e+23
68.75 9.72412e+23
70 9.72029e+23
75 9.70524e+23
80 9.69052e+23
81.25 9.68688e+23
85 9.67609e+23
87.5 9.66898e+23
90 9.66197e+23
93.75 9.65158e+23
95 9.64817e+23
100 9.63461e+23
106.25 9.61821e+23
112.5 9.60238e+23
118.75 9.58701e+23
125 9.57222e+23
131.25 9.55818e+23
137.5 9.54468e+23
143.75 9.53207e+23
146.875 9.52601e+23
150 9.52014e+23
153.125 9.51459e+23
156.25 9.50925e+23
159.375 9.50414e+23
162.5 9.49927e+23
165.625 9.4948e+23
168.75 9.49062e+23
171.875 9.48674e+23
175 9.48319e+23
178.125 9.48011e+23
181.25 9.47742e+23
184.375 9.47514e+23
187.5 9.47331e+23
190.625 9.47208e+23
193.75 9.47137e+23
196.875 9.47125e+23
200 9.47178e+23
204.023 9.47364e+23
208.046 9.4768e+23
212.069 9.48143e+23
212.5 9.48211e+23
216.093 9.48786e+23
220.116 9.49617e+23
222.127 9.50112e+23
224.139 9.50666e+23
225 9.50931e+23
226.15 9.51288e+23
228.162 9.51978e+23
230.174 9.52741e+23
232.185 9.53581e+23
234.951 9.54877e+23
237.5 9.56229e+23
237.717 9.56345e+23
240.483 9.58017e+23
243.249 9.59911e+23
246.015 9.62042e+23
248.781 9.64453e+23
250 9.65651e+23
251.546 9.67179e+23
254.312 9.70252e+23
257.078 9.73732e+23
258.461 9.75627e+23
259.844 9.77652e+23
262.61 9.82088e+23
263.993 9.84524e+23
265.376 9.87124e+23
266.759 9.8988e+23
268.142 9.92823e+23
269.525 9.95976e+23
270.908 9.99325e+23
272.291 1.0029e+24
273.674 1.00674e+24
275 1.01067e+24
275.057 1.01084e+24
276.439 1.01523e+24
278.325 1.02174e+24
280.211 1.02891e+24
282.097 1.03682e+24
283.983 1.04556e+24
284.926 1.05023e+24
285.869 1.05519e+24
287.755 1.06595e+24
289.64 1.07793e+24
290.583 1.08444e+24
291.526 1.09132e+24
292.909 1.10216e+24
294.292 1.11395e+24
295.675 1.12682e+24
297.058 1.14088e+24
298.441 1.15629e+24
299.824 1.17319e+24
300 1.17556e+24
301.207 1.1918e+24
302.59 1.21231e+24
303.973 1.23499e+24
305.356 1.26012e+24
306.739 1.28804e+24
307.43 1.30317e+24
308.122 1.31915e+24
308.813 1.33604e+24
309.505 1.35391e+24
310.196 1.37283e+24
310.888 1.39287e+24
311.579 1.41413e+24
312.27 1.43668e+24
312.962 1.46063e+24
313.653 1.48608e+24
314.251 1.50936e+24
314.848 1.53394e+24
315.445 1.55989e+24
316.042 1.5873e+24
316.639 1.61629e+24
317.237 1.64695e+24
317.834 1.67941e+24
318.431 1.71377e+24
319.028 1.75018e+24
319.625 1.78877e+24
320.222 1.8297e+24
320.82 1.87309e+24
321.417 1.91904e+24
322.014 1.9677e+24
322.611 2.01949e+24
323.208 2.07457e+24
323.994 2.15228e+24
324.78 2.23636e+24
325 2.26184e+24
325.565 2.32727e+24
326.351 2.42546e+24
327.136 2.53144e+24
327.922 2.6458e+24
328.708 2.76811e+24
329.493 2.89853e+24
330.105 3.006e+24
330.717 3.11832e+24
331.941 3.35666e+24
334.389 3.86312e+24
335.612 4.11288e+24
336.224 4.23044e+24
336.836 4.34024e+24
337.448 4.44e+24
338.06 4.52745e+24
338.672 4.60041e+24
339.284 4.65704e+24
340.037 4.70209e+24
340.79 4.71832e+24
341.402 4.70988e+24
342.013 4.68242e+24
342.624 4.63685e+24
343.236 4.57456e+24
343.847 4.49732e+24
344.459 4.40717e+24
345.07 4.30633e+24
345.681 4.19702e+24
346.904 3.96152e+24
348.127 3.71668e+24
349.35 3.47445e+24
350 3.35068e+24
350.573 3.24158e+24
351.43 3.08793e+24
352.287 2.94298e+24
353.144 2.80707e+24
354.001 2.68048e+24
354.858 2.56302e+24
355.715 2.45431e+24
356.572 2.35388e+24
357.429 2.26124e+24
358.22 2.18223e+24
359.01 2.10894e+24
359.801 2.04097e+24
360.591 1.97792e+24
361.382 1.9194e+24
362.172 1.86504e+24
362.963 1.81452e+24
363.753 1.76754e+24
364.436 1.72959e+24
365.118 1.69395e+24
365.801 1.66048e+24
366.484 1.62888e+24
367.166 1.599e+24
367.849 1.57079e+24
368.532 1.54415e+24
369.214 1.51898e+24
369.897 1.49516e+24
370.58 1.47262e+24
371.262 1.45127e+24
371.945 1.43103e+24
372.628 1.41182e+24
373.31 1.39358e+24
374.676 1.35976e+24
375 1.35235e+24
375.466 1.34168e+24
376.257 1.32458e+24
377.047 1.30841e+24
377.838 1.2931e+24
378.628 1.27859e+24
379.419 1.26483e+24
380.999 1.23935e+24
382.58 1.21631e+24
384.161 1.19541e+24
385.742 1.17639e+24
387.323 1.15903e+24
388.908 1.14311e+24
390.492 1.12851e+24
392.077 1.11508e+24
393.662 1.10269e+24
395.246 1.09124e+24
396.831 1.08064e+24
398.415 1.0708e+24
400 1.06166e+24
401.507 1.05356e+24
403.015 1.04596e+24
404.522 1.03881e+24
406.029 1.03209e+24
407.536 1.02578e+24
409.043 1.01985e+24
410.551 1.01421e+24
412.058 1.0089e+24
413.565 1.00388e+24
415.072 9.99094e+23
416.58 9.94576e+23
418.087 9.9028e+23
419.594 9.86181e+23
421.101 9.82293e+23
424.116 9.75029e+23
425 9.73092e+23
427.277 9.68113e+23
430.439 9.61796e+23
433.601 9.56008e+23
436.763 9.50689e+23
439.925 9.45771e+23
443.087 9.41218e+23
446.249 9.36985e+23
449.41 9.33034e+23
450 9.32339e+23
451.71 9.30332e+23
454.01 9.27758e+23
456.309 9.25299e+23
458.609 9.22946e+23
460.908 9.20692e+23
463.208 9.18534e+23
467.807 9.14465e+23
472.406 9.10688e+23
475 9.08704e+23
477.005 9.07178e+23
481.604 9.03907e+23
486.203 9.00838e+23
489.652 8.98659e+23
493.102 8.9657e+23
496.551 8.94556e+23
500 8.92618e+23
505.859 8.89525e+23
511.719 8.86601e+23
517.578 8.83842e+23
523.438 8.81215e+23
525 8.80548e+23
529.297 8.78733e+23
535.156 8.76362e+23
541.016 8.741e+23
546.875 8.71906e+23
550 8.70796e+23
556.641 8.68463e+23
561.524 8.66812e+23
566.406 8.65212e+23
571.289 8.63638e+23
575 8.62476e+23
576.172 8.62114e+23
585.938 8.59178e+23
595.703 8.56365e+23
600 8.55171e+23
605.469 8.53673e+23
615.234 8.51081e+23
625 8.48566e+23
638.672 8.45211e+23
650 8.42526e+23
652.344 8.41979e+23
666.016 8.38887e+23
675 8.36915e+23
679.688 8.35902e+23
693.359 8.33042e+23
700 8.31682e+23
707.031 8.30276e+23
720.703 8.27609e+23
734.375 8.25008e+23
750 8.22114e+23
765.625 8.19396e+23
781.25 8.16757e+23
800 8.13698e+23
809.375 8.12261e+23
818.75 8.10859e+23
825 8.09937e+23
828.125 8.09485e+23
837.5 8.08176e+23
846.875 8.06908e+23
850 8.06499e+23
856.25 8.057e+23
865.625 8.04547e+23
875 8.03448e+23
884.277 8.02447e+23
893.555 8.01511e+23
900 8.00913e+23
902.832 8.00657e+23
912.109 7.99905e+23
921.387 7.9925e+23
925 7.99043e+23
930.664 7.98734e+23
939.942 7.98362e+23
944.58 7.98238e+23
949.219 7.98161e+23
950 7.98157e+23
954.59 7.98146e+23
959.961 7.9821e+23
962.5 7.98282e+23
965.332 7.98366e+23
970.703 7.98629e+23
975 7.9893e+23
976.074 7.99007e+23
981.445 7.99529e+23
984.131 7.99845e+23
986.817 8.00208e+23
987.5 8.00311e+23
989.502 8.00617e+23
992.188 8.01076e+23
996.094 8.01846e+23
1000 8.02746e+23
1003.72 8.03748e+23
1007.43 8.0491e+23
1009.42 8.05627e+23
1011.15 8.06252e+23
1013.01 8.07002e+23
1014.87 8.07808e+23
1016.72 8.08676e+23
1018.58 8.0961e+23
1018.84 8.0975e+23
1020.44 8.10615e+23
1022.3 8.11699e+23
1024.16 8.1287e+23
1026.01 8.14131e+23
1027.87 8.15489e+23
1028.25 8.15787e+23
1029.73 8.16953e+23
1031.68 8.18628e+23
1033.62 8.20453e+23
1035.57 8.22441e+23
1037.52 8.24611e+23
1037.67 8.24795e+23
1039.46 8.2699e+23
1041.41 8.29596e+23
1042.38 8.31028e+23
1043.35 8.32462e+23
1045.3 8.35619e+23
1047.09 8.38823e+23
1047.25 8.3911e+23
1049.19 8.42982e+23
1050.17 8.45076e+23
1051.14 8.47286e+23
1051.8 8.48874e+23
1052.11 8.49621e+23
1053.09 8.52089e+23
1054.06 8.54705e+23
1055.03 8.57475e+23
1056.01 8.60412e+23
1056.51 8.6202e+23
1056.98 8.63533e+23
1057.95 8.66855e+23
1058.93 8.70386e+23
1059.9 8.74153e+23
1060.87 8.78173e+23
1061.22 8.7973e+23
1062.02 8.83289e+23
1063.17 8.8882e+23
1064.32 8.94823e+23
1065.47 9.01373e+23
1065.93 9.04238e+23
1066.62 9.08536e+23
1067.77 9.16383e+23
1068.92 9.25e+23
1070.07 9.34491e+23
1070.63 9.39526e+23
1071.05 9.43303e+23
1072.02 9.52909e+23
1072.99 9.6341e+23
1073.97 9.74924e+23
1074.94 9.87596e+23
1075.34 9.93353e+23
1075.91 1.00156e+24
1076.4 1.00909e+24
1076.89 1.01699e+24
1077.37 1.02534e+24
1077.86 1.03412e+24
1078.35 1.0434e+24
1078.83 1.0532e+24
1079.32 1.06356e+24
1079.81 1.0745e+24
1080.05 1.08029e+24
1080.29 1.08609e+24
1080.78 1.09836e+24
1081.27 1.11139e+24
1081.75 1.12519e+24
1082.24 1.13988e+24
1082.73 1.15551e+24
1083.21 1.17213e+24
1083.7 1.1898e+24
1084.19 1.20866e+24
1084.67 1.22873e+24
1084.76 1.23266e+24
1085.16 1.25018e+24
1085.65 1.27303e+24
1086.13 1.29751e+24
1086.62 1.32368e+24
1087.11 1.35167e+24
1087.59 1.38156e+24
1088.08 1.41359e+24
1088.57 1.44775e+24
1089.05 1.48431e+24
1089.47 1.51768e+24
1089.54 1.52325e+24
1089.91 1.55467e+24
1090.28 1.58761e+24
1090.65 1.62207e+24
1091.02 1.65807e+24
1091.39 1.69559e+24
1091.77 1.73459e+24
1091.82 1.74013e+24
1092.51 1.81669e+24
1093.25 1.90335e+24
1093.99 1.99276e+24
1094.18 2.01573e+24
1094.73 2.08219e+24
1095.48 2.16795e+24
1095.9 2.21395e+24
1096.33 2.25603e+24
1096.53 2.2734e+24
1096.76 2.29337e+24
1097.19 2.32471e+24
1097.61 2.34927e+24
1098.04 2.36603e+24
1098.47 2.3744e+24
1098.89 2.37387e+24
1099.39 2.36194e+24
1099.73 2.34672e+24
1100.07 2.32611e+24
1100.41 2.30028e+24
1100.75 2.26981e+24
1101.09 2.23498e+24
1101.24 2.21802e+24
1101.43 2.19654e+24
1101.77 2.15481e+24
1102.1 2.11063e+24
1102.78 2.01664e+24
1103.46 1.91889e+24
1103.6 1.89875e+24
1104.14 1.82106e+24
1104.82 1.72617e+24
1105.54 1.63025e+24
1105.91 1.58487e+24
1105.95 1.58005e+24
1106.27 1.5414e+24
1106.63 1.49987e+24
1106.99 1.46032e+24
1107.35 1.42274e+24
1107.72 1.38712e+24
1108.08 1.3534e+24
1108.31 1.33303e+24
1108.44 1.32154e+24
1108.8 1.29146e+24
1109.16 1.26309e+24
1109.53 1.23635e+24
1109.89 1.21116e+24
1110.25 1.18744e+24
1110.61 1.16517e+24
1110.66 1.16226e+24
1110.98 1.14364e+24
1111.35 1.12346e+24
1111.72 1.10444e+24
1112.09 1.08659e+24
1112.46 1.06977e+24
1112.83 1.05398e+24
1113.01 1.04672e+24
1113.2 1.03908e+24
1113.57 1.02509e+24
1113.95 1.01187e+24
1114.32 9.99452e+23
1114.69 9.87708e+23
1115.06 9.76657e+23
1115.37 9.67895e+23
1115.43 9.66198e+23
1115.8 9.56351e+23
1116.17 9.47044e+23
1116.54 9.38243e+23
1116.55 9.38018e+23
1116.91 9.29898e+23
1117.28 9.2202e+23
1117.65 9.14539e+23
1117.72 9.13202e+23
1118.02 9.0747e+23
1118.39 9.00752e+23
1118.76 8.94394e+23
1118.9 8.92111e+23
1119.13 8.88364e+23
1119.5 8.82636e+23
1119.87 8.7718e+23
1120.08 8.74243e+23
1120.24 8.72007e+23
1120.98 8.62412e+23
1121.25 8.59233e+23
1121.72 8.53708e+23
1122.43 8.46137e+23
1122.46 8.45819e+23
1123.2 8.38643e+23
1123.61 8.35019e+23
1123.94 8.3211e+23
1124.69 8.26155e+23
1124.79 8.2542e+23
1125.43 8.20736e+23
1125.96 8.17179e+23
1126.17 8.15776e+23
1126.91 8.11247e+23
1127.14 8.09955e+23
1127.65 8.0711e+23
1128.32 8.03683e+23
1128.39 8.03329e+23
1129.13 7.99881e+23
1129.49 7.98338e+23
1129.87 7.96726e+23
1130.08 7.95907e+23
1130.61 7.93857e+23
1130.67 7.93644e+23
1131.26 7.9157e+23
1131.35 7.91258e+23
1131.85 7.89661e+23
1132.09 7.88905e+23
1132.44 7.87894e+23
1132.83 7.8679e+23
1133.03 7.8627e+23
1133.57 7.84902e+23
1133.62 7.84786e+23
1134.2 7.83492e+23
1134.31 7.83254e+23
1134.79 7.82334e+23
1135.26 7.81477e+23
1135.38 7.81283e+23
1135.97 7.80392e+23
1136.2 7.80073e+23
1136.56 7.79649e+23
1137.14 7.79054e+23
1137.15 7.79045e+23
1137.74 7.7867e+23
1138.09 7.7853e+23
1138.32 7.78472e+23
1138.62 7.78435e+23
1138.91 7.78456e+23
1139.03 7.78476e+23
1139.21 7.78533e+23
1139.5 7.78694e+23
1139.8 7.78892e+23
1139.97 7.79054e+23
1140.09 7.79185e+23
1140.38 7.79573e+23
1140.68 7.80018e+23
1140.91 7.80451e+23
1140.97 7.80572e+23
1141.27 7.8124e+23
1141.56 7.82034e+23
1141.86 7.82932e+23
1142.15 7.84012e+23
1142.44 7.85247e+23
1142.6 7.85997e+23
1142.74 7.86665e+23
1143.03 7.88312e+23
1143.33 7.90186e+23
1143.34 7.90261e+23
1143.47 7.91246e+23
1143.62 7.92372e+23
1143.77 7.93588e+23
1143.92 7.94883e+23
1144.06 7.96286e+23
1144.08 7.96484e+23
1144.21 7.97791e+23
1144.36 7.9941e+23
1144.5 8.01165e+23
1144.65 8.03043e+23
1144.8 8.05068e+23
1144.82 8.05361e+23
1144.95 8.07282e+23
1145.09 8.09672e+23
1145.24 8.12249e+23
1145.39 8.15043e+23
